INDEX VERSION 1.131+C:\Users\raman\OneDrive\Documents\spring-boot-jan-21\.metadata\.plugins\org.eclipse.jdt.core
1332693332.index
2333419045.index
925868368.index
2269943446.index
3389721300.index
3935241189.index
3856399882.index
1617511769.index
3973646989.index
2425863181.index
1628147130.index
148276484.index
4155418146.index
1510148114.index
1554051480.index
1250186508.index
1522023493.index
2254502775.index
1175401607.index
1427884467.index
1545932363.index
704013676.index
2235830143.index
3072676376.index
3222027207.index
1492800366.index
3527903221.index
1629552252.index
1222814216.index
3620703823.index
2167972189.index
483471418.index
4193803526.index
1155212083.index
1379191395.index
3315753527.index
3383775654.index
2701144764.index
214585365.index
2022930536.index
3642417918.index
2836321794.index
1112077200.index
2511510182.index
2566564363.index
2693262752.index
160787850.index
445699278.index
1014361073.index
2543523646.index
820084027.index
227771160.index
2625288016.index
2907473905.index
4048301330.index
1526858741.index
572867438.index
2715310064.index
1416324034.index
688365908.index
4018783759.index
1916712595.index
3035992211.index
390842708.index
3684109068.index
3399669739.index
88633588.index
3808843675.index
3629451493.index
3925490168.index
3207752230.index
4021740475.index
3786865694.index
622187199.index
862963952.index
2263794123.index
334484962.index
414943241.index
3262669989.index
653055787.index
2863099585.index
2363031167.index
1418851409.index
3191726842.index
1120298428.index
768326893.index
471046564.index
1645482675.index
3274236323.index
376782687.index
3110429762.index
593251401.index
3547185434.index
1825247756.index
1275461033.index
418074998.index
1051683094.index
3406426114.index
301100125.index
335878890.index
856774149.index
2267207958.index
481645341.index
2521354187.index
3486081773.index
2159829226.index
2131156968.index
2656362811.index
4155396414.index
3915011038.index
634091653.index
197087373.index
2794444182.index
2053317386.index
467900756.index
804359219.index
875791015.index
156043734.index
1426206346.index
1021308514.index
3187987692.index
2785817454.index
4189109908.index
2974692353.index
3252568445.index
1132740132.index
2646403214.index
3851930518.index
1428178871.index
4173122026.index
1614979500.index
2573734699.index
4281699400.index
2068687027.index
4271177133.index
2029011369.index
526019975.index
1892674008.index
3743568853.index
3238150714.index
3949027398.index
552214294.index
1568288509.index
2657537659.index
3934384119.index
2428313807.index
1704244324.index
2118974089.index
3530696563.index
1597821515.index
3799703001.index
2100908154.index
1363184185.index
1955211865.index
2546019307.index
1583080034.index
3687695645.index
3794902081.index
2005045120.index
2507285365.index
293139183.index
1355482975.index
3907522960.index
2796810139.index
84458447.index
4050010512.index
1091023981.index
2283111192.index
1500444764.index
2229886263.index
4223432736.index
480691596.index
255819638.index
1350629893.index
2738452175.index
